Energy1[eV]	Photons1	Energy3[eV]	Photons3	Energy5[eV]	Photons5	Energy7[eV]	Photons7
5.44142e+2	3.14798e+14	1.63243e+3	6.34448e+12	2.72071e+3	1.39557e+11	3.80899e+3	3.11987e+9
5.43900e+2	3.15850e+14	1.63170e+3	6.41013e+12	2.71950e+3	1.41995e+11	3.80730e+3	3.19679e+9
5.43658e+2	3.16902e+14	1.63097e+3	6.47627e+12	2.71829e+3	1.44469e+11	3.80560e+3	3.27541e+9
5.43415e+2	3.17956e+14	1.63025e+3	6.54293e+12	2.71708e+3	1.46979e+11	3.80391e+3	3.35576e+9
5.43172e+2	3.19009e+14	1.62952e+3	6.61010e+12	2.71586e+3	1.49527e+11	3.80221e+3	3.43787e+9
5.42929e+2	3.20064e+14	1.62879e+3	6.67778e+12	2.71465e+3	1.52112e+11	3.80051e+3	3.52177e+9
5.42686e+2	3.21120e+14	1.62806e+3	6.74598e+12	2.71343e+3	1.54735e+11	3.79880e+3	3.60750e+9
5.42443e+2	3.22176e+14	1.62733e+3	6.81470e+12	2.71221e+3	1.57397e+11	3.79710e+3	3.69509e+9
5.42199e+2	3.23432e+14	1.62660e+3	6.88394e+12	2.71099e+3	1.60097e+11	3.79539e+3	3.78458e+9
5.41955e+2	3.24490e+14	1.62586e+3	6.95370e+12	2.70977e+3	1.62837e+11	3.79368e+3	3.87601e+9
5.41710e+2	3.25548e+14	1.62513e+3	7.02398e+12	2.70855e+3	1.65616e+11	3.79197e+3	3.96940e+9
5.41466e+2	3.26607e+14	1.62440e+3	7.09480e+12	2.70733e+3	1.68436e+11	3.79026e+3	4.06481e+9
5.41221e+2	3.27667e+14	1.62366e+3	7.16615e+12	2.70610e+3	1.71297e+11	3.78855e+3	4.16225e+9
5.40976e+2	3.28727e+14	1.62293e+3	7.23802e+12	2.70488e+3	1.74198e+11	3.78683e+3	4.26179e+9
5.40730e+2	3.29788e+14	1.62219e+3	7.31044e+12	2.70365e+3	1.77142e+11	3.78511e+3	4.36344e+9
5.40485e+2	3.30850e+14	1.62145e+3	7.38339e+12	2.70242e+3	1.80127e+11	3.78339e+3	4.46726e+9
5.40239e+2	3.31912e+14	1.62072e+3	7.45688e+12	2.70119e+3	1.83155e+11	3.78167e+3	4.57328e+9
5.39993e+2	3.32975e+14	1.61998e+3	7.53091e+12	2.69996e+3	1.86226e+11	3.77995e+3	4.68154e+9
5.39746e+2	3.34038e+14	1.61924e+3	7.60548e+12	2.69873e+3	1.89341e+11	3.77822e+3	4.79208e+9
5.39500e+2	3.35102e+14	1.61850e+3	7.68060e+12	2.69750e+3	1.92500e+11	3.77650e+3	4.90496e+9
5.39253e+2	3.36166e+14	1.61776e+3	7.75628e+12	2.69626e+3	1.95703e+11	3.77477e+3	5.02020e+9
5.39006e+2	3.37232e+14	1.61702e+3	7.83250e+12	2.69503e+3	1.98952e+11	3.77304e+3	5.13785e+9
5.38758e+2	3.38298e+14	1.61627e+3	7.90927e+12	2.69379e+3	2.02246e+11	3.77131e+3	5.25795e+9
5.38511e+2	3.39364e+14	1.61553e+3	7.98660e+12	2.69255e+3	2.05587e+11	3.76957e+3	5.38056e+9
5.38263e+2	3.40218e+14	1.61479e+3	8.06449e+12	2.69131e+3	2.08974e+11	3.76784e+3	5.50571e+9
5.38015e+2	3.41285e+14	1.61404e+3	8.14294e+12	2.69007e+3	2.12408e+11	3.76610e+3	5.63345e+9
5.37766e+2	3.42352e+14	1.61330e+3	8.22196e+12	2.68883e+3	2.15890e+11	3.76436e+3	5.76384e+9
5.37518e+2	3.43419e+14	1.61255e+3	8.30153e+12	2.68759e+3	2.19420e+11	3.76262e+3	5.89690e+9
5.37269e+2	3.44488e+14	1.61181e+3	8.38168e+12	2.68634e+3	2.22999e+11	3.76088e+3	6.03270e+9
5.37020e+2	3.45556e+14	1.61106e+3	8.46239e+12	2.68510e+3	2.26627e+11	3.75914e+3	6.17128e+9
5.36770e+2	3.46626e+14	1.61031e+3	8.54368e+12	2.68385e+3	2.30305e+11	3.75739e+3	6.31269e+9
5.36521e+2	3.47695e+14	1.60956e+3	8.62566e+12	2.68260e+3	2.34033e+11	3.75565e+3	6.45699e+9
5.36271e+2	3.48766e+14	1.60881e+3	8.70808e+12	2.68135e+3	2.37813e+11	3.75390e+3	6.60421e+9
5.36021e+2	3.49836e+14	1.60806e+3	8.79098e+12	2.68010e+3	2.41643e+11	3.75215e+3	6.75443e+9
5.35771e+2	3.50907e+14	1.60731e+3	8.87458e+12	2.67885e+3	2.45526e+11	3.75039e+3	6.90767e+9
5.35520e+2	3.51979e+14	1.60656e+3	8.95876e+12	2.67760e+3	2.49462e+11	3.74864e+3	7.06401e+9
5.35269e+2	3.53052e+14	1.60581e+3	9.04353e+12	2.67635e+3	2.53450e+11	3.74689e+3	7.22349e+9
5.35018e+2	3.54124e+14	1.60505e+3	9.12888e+12	2.67509e+3	2.57493e+11	3.74513e+3	7.38617e+9
5.34767e+2	3.55419e+14	1.60430e+3	9.21483e+12	2.67384e+3	2.61589e+11	3.74337e+3	7.55210e+9
5.34516e+2	3.56493e+14	1.60355e+3	9.30137e+12	2.67258e+3	2.65741e+11	3.74161e+3	7.72135e+9
5.34264e+2	3.57568e+14	1.60279e+3	9.38849e+12	2.67132e+3	2.69948e+11	3.73985e+3	7.89396e+9
5.34012e+2	3.58643e+14	1.60204e+3	9.47622e+12	2.67006e+3	2.74211e+11	3.73808e+3	8.06999e+9
5.33760e+2	3.59719e+14	1.60128e+3	9.56455e+12	2.66880e+3	2.78531e+11	3.73632e+3	8.24951e+9
5.33508e+2	3.60795e+14	1.60052e+3	9.65348e+12	2.66754e+3	2.82908e+11	3.73455e+3	8.43258e+9
5.33255e+2	3.61871e+14	1.59976e+3	9.74301e+12	2.66627e+3	2.87343e+11	3.73278e+3	8.61925e+9
5.33002e+2	3.62948e+14	1.59901e+3	9.83315e+12	2.66501e+3	2.91836e+11	3.73102e+3	8.80959e+9
5.32749e+2	3.64025e+14	1.59825e+3	9.92389e+12	2.66375e+3	2.96389e+11	3.72924e+3	9.00365e+9
5.32496e+2	3.65103e+14	1.59749e+3	1.00152e+13	2.66248e+3	3.01001e+11	3.72747e+3	9.20150e+9
5.32242e+2	3.66181e+14	1.59673e+3	1.01072e+13	2.66121e+3	3.05673e+11	3.72570e+3	9.40321e+9
5.31989e+2	3.67260e+14	1.59597e+3	1.01998e+13	2.65994e+3	3.10407e+11	3.72392e+3	9.60884e+9
5.31735e+2	3.68339e+14	1.59520e+3	1.02930e+13	2.65867e+3	3.15202e+11	3.72214e+3	9.81846e+9
5.31481e+2	3.69418e+14	1.59444e+3	1.03868e+13	2.65740e+3	3.20059e+11	3.72036e+3	1.00321e+10
5.31226e+2	3.70498e+14	1.59368e+3	1.04813e+13	2.65613e+3	3.24979e+11	3.71858e+3	1.02499e+10
5.30972e+2	3.71578e+14	1.59292e+3	1.05788e+13	2.65486e+3	3.29962e+11	3.71680e+3	1.04719e+10
5.30717e+2	3.72422e+14	1.59215e+3	1.06746e+13	2.65358e+3	3.35010e+11	3.71502e+3	1.06981e+10
5.30462e+2	3.73503e+14	1.59139e+3	1.07684e+13	2.65231e+3	3.40122e+11	3.71323e+3	1.09287e+10
5.30207e+2	3.74583e+14	1.59062e+3	1.08653e+13	2.65103e+3	3.45300e+11	3.71145e+3	1.11636e+10
5.29951e+2	3.75664e+14	1.58985e+3	1.09629e+13	2.64976e+3	3.50543e+11	3.70966e+3	1.14031e+10
5.29696e+2	3.76745e+14	1.58909e+3	1.10611e+13	2.64848e+3	3.55854e+11	3.70787e+3	1.16471e+10
5.29440e+2	3.77827e+14	1.58832e+3	1.11600e+13	2.64720e+3	3.61232e+11	3.70608e+3	1.18957e+10
5.29184e+2	3.78910e+14	1.58755e+3	1.12595e+13	2.64592e+3	3.66678e+11	3.70429e+3	1.21490e+10
5.28927e+2	3.79991e+14	1.58678e+3	1.13596e+13	2.64464e+3	3.72192e+11	3.70249e+3	1.24070e+10
5.28671e+2	3.81073e+14	1.58601e+3	1.14604e+13	2.64335e+3	3.77776e+11	3.70070e+3	1.26699e+10
5.28414e+2	3.82156e+14	1.58524e+3	1.15618e+13	2.64207e+3	3.83431e+11	3.69890e+3	1.29378e+10
5.28157e+2	3.83239e+14	1.58447e+3	1.16639e+13	2.64079e+3	3.89156e+11	3.69710e+3	1.32106e+10
5.27900e+2	3.84323e+14	1.58370e+3	1.17666e+13	2.63950e+3	3.94952e+11	3.69530e+3	1.34885e+10
5.27643e+2	3.85407e+14	1.58293e+3	1.18700e+13	2.63821e+3	4.00821e+11	3.69350e+3	1.37716e+10
5.27385e+2	3.86491e+14	1.58216e+3	1.19740e+13	2.63693e+3	4.06762e+11	3.69170e+3	1.40600e+10
5.27128e+2	3.87821e+14	1.58138e+3	1.20787e+13	2.63564e+3	4.12778e+11	3.68989e+3	1.43537e+10
5.26870e+2	3.88907e+14	1.58061e+3	1.21840e+13	2.63435e+3	4.18867e+11	3.68809e+3	1.46528e+10
5.26612e+2	3.89992e+14	1.57983e+3	1.22901e+13	2.63306e+3	4.25032e+11	3.68628e+3	1.49574e+10
5.26353e+2	3.91078e+14	1.57906e+3	1.23967e+13	2.63177e+3	4.31272e+11	3.68447e+3	1.52676e+10
5.26095e+2	3.92165e+14	1.57828e+3	1.25041e+13	2.63047e+3	4.37589e+11	3.68266e+3	1.55835e+10
5.25836e+2	3.93251e+14	1.57751e+3	1.26121e+13	2.62918e+3	4.43983e+11	3.68085e+3	1.59051e+10
5.25577e+2	3.94338e+14	1.57673e+3	1.27207e+13	2.62789e+3	4.50455e+11	3.67904e+3	1.62326e+10
5.25318e+2	3.95425e+14	1.57595e+3	1.28335e+13	2.62659e+3	4.57005e+11	3.67723e+3	1.65661e+10
5.25059e+2	3.96512e+14	1.57518e+3	1.29401e+13	2.62529e+3	4.63635e+11	3.67541e+3	1.69056e+10
5.24799e+2	3.97600e+14	1.57440e+3	1.30508e+13	2.62400e+3	4.70345e+11	3.67359e+3	1.72512e+10
5.24540e+2	3.98688e+14	1.57362e+3	1.31622e+13	2.62270e+3	4.77136e+11	3.67178e+3	1.76031e+10
5.24280e+2	3.99776e+14	1.57284e+3	1.32742e+13	2.62140e+3	4.84009e+11	3.66996e+3	1.79613e+10
5.24020e+2	4.00864e+14	1.57206e+3	1.33870e+13	2.62010e+3	4.90964e+11	3.66814e+3	1.83259e+10
5.23759e+2	4.01953e+14	1.57128e+3	1.35004e+13	2.61880e+3	4.98003e+11	3.66632e+3	1.86970e+10
5.23499e+2	4.03041e+14	1.57050e+3	1.36145e+13	2.61749e+3	5.05125e+11	3.66449e+3	1.90748e+10
5.23238e+2	4.04131e+14	1.56971e+3	1.37293e+13	2.61619e+3	5.12332e+11	3.66267e+3	1.94593e+10
5.22977e+2	4.04959e+14	1.56893e+3	1.38448e+13	2.61489e+3	5.19625e+11	3.66084e+3	1.98506e+10
5.22716e+2	4.06048e+14	1.56815e+3	1.39610e+13	2.61358e+3	5.27004e+11	3.65901e+3	2.02488e+10
5.22455e+2	4.07137e+14	1.56737e+3	1.40778e+13	2.61228e+3	5.34470e+11	3.65719e+3	2.06541e+10
5.22194e+2	4.08226e+14	1.56658e+3	1.41954e+13	2.61097e+3	5.42024e+11	3.65536e+3	2.10666e+10
5.21932e+2	4.09315e+14	1.56580e+3	1.43137e+13	2.60966e+3	5.49667e+11	3.65353e+3	2.14862e+10
5.21670e+2	4.10405e+14	1.56501e+3	1.44327e+13	2.60835e+3	5.57399e+11	3.65169e+3	2.19133e+10
5.21409e+2	4.11494e+14	1.56423e+3	1.45523e+13	2.60704e+3	5.65221e+11	3.64986e+3	2.23477e+10
5.21146e+2	4.12584e+14	1.56344e+3	1.46727e+13	2.60573e+3	5.73135e+11	3.64802e+3	2.27898e+10
5.20884e+2	4.13674e+14	1.56265e+3	1.47938e+13	2.60442e+3	5.81140e+11	3.64619e+3	2.32396e+10
5.20622e+2	4.14764e+14	1.56186e+3	1.49156e+13	2.60311e+3	5.89239e+11	3.64435e+3	2.36972e+10
5.20359e+2	4.15855e+14	1.56108e+3	1.50381e+13	2.60179e+3	5.97430e+11	3.64251e+3	2.41626e+10
5.20096e+2	4.16945e+14	1.56029e+3	1.51613e+13	2.60048e+3	6.05717e+11	3.64067e+3	2.46362e+10
5.19833e+2	4.18036e+14	1.55950e+3	1.52852e+13	2.59917e+3	6.14098e+11	3.63883e+3	2.51178e+10
5.19570e+2	4.19396e+14	1.55871e+3	1.54099e+13	2.59785e+3	6.22576e+11	3.63699e+3	2.56078e+10
5.19307e+2	4.20488e+14	1.55792e+3	1.55352e+13	2.59653e+3	6.31150e+11	3.63515e+3	2.61062e+10
5.19043e+2	4.21580e+14	1.55713e+3	1.56613e+13	2.59522e+3	6.39823e+11	3.63330e+3	2.66130e+10
5.18779e+2	4.22672e+14	1.55634e+3	1.57881e+13	2.59390e+3	6.48594e+11	3.63146e+3	2.71285e+10
5.18516e+2	4.23764e+14	1.55555e+3	1.59157e+13	2.59258e+3	6.57464e+11	3.62961e+3	2.76528e+10
5.18251e+2	4.24856e+14	1.55475e+3	1.60439e+13	2.59126e+3	6.66435e+11	3.62776e+3	2.81860e+10
5.17987e+2	4.25948e+14	1.55396e+3	1.61729e+13	2.58994e+3	6.75507e+11	3.62591e+3	2.87282e+10
5.17723e+2	4.27041e+14	1.55317e+3	1.63026e+13	2.58861e+3	6.84681e+11	3.62406e+3	2.92795e+10
5.17458e+2	4.28133e+14	1.55237e+3	1.64331e+13	2.58729e+3	6.93958e+11	3.62221e+3	2.98401e+10
5.17194e+2	4.29226e+14	1.55158e+3	1.65643e+13	2.58597e+3	7.03339e+11	3.62036e+3	3.04102e+10
5.16929e+2	4.30318e+14	1.55079e+3	1.66962e+13	2.58464e+3	7.12825e+11	3.61850e+3	3.09897e+10
5.16664e+2	4.31411e+14	1.54999e+3	1.68288e+13	2.58332e+3	7.22416e+11	3.61665e+3	3.15790e+10
5.16398e+2	4.32504e+14	1.54920e+3	1.69622e+13	2.58199e+3	7.32114e+11	3.61479e+3	3.21781e+10
5.16133e+2	4.33597e+14	1.54840e+3	1.70964e+13	2.58067e+3	7.41919e+11	3.61293e+3	3.27872e+10
5.15868e+2	4.34690e+14	1.54760e+3	1.72313e+13	2.57934e+3	7.51833e+11	3.61107e+3	3.34063e+10
5.15602e+2	4.35783e+14	1.54681e+3	1.73669e+13	2.57801e+3	7.61856e+11	3.60921e+3	3.40357e+10
5.15336e+2	4.36591e+14	1.54601e+3	1.75033e+13	2.57668e+3	7.71989e+11	3.60735e+3	3.46755e+10
5.15070e+2	4.37684e+14	1.54521e+3	1.76404e+13	2.57535e+3	7.82233e+11	3.60549e+3	3.53258e+10
5.14804e+2	4.38776e+14	1.54441e+3	1.77783e+13	2.57402e+3	7.92589e+11	3.60363e+3	3.59867e+10
5.14538e+2	4.39869e+14	1.54361e+3	1.79169e+13	2.57269e+3	8.03058e+11	3.60176e+3	3.66586e+10
5.14271e+2	4.40962e+14	1.54281e+3	1.80563e+13	2.57136e+3	8.13641e+11	3.59990e+3	3.73413e+10
5.14004e+2	4.42053e+14	1.54201e+3	1.81964e+13	2.57002e+3	8.24338e+11	3.59803e+3	3.80352e+10
5.13738e+2	4.43146e+14	1.54121e+3	1.83373e+13	2.56869e+3	8.35152e+11	3.59616e+3	3.87404e+10
5.13471e+2	4.44240e+14	1.54041e+3	1.84790e+13	2.56735e+3	8.46082e+11	3.59429e+3	3.94570e+10
5.13204e+2	4.45333e+14	1.53961e+3	1.86214e+13	2.56602e+3	8.57129e+11	3.59242e+3	4.01852e+10
5.12936e+2	4.46425e+14	1.53881e+3	1.87646e+13	2.56468e+3	8.68295e+11	3.59055e+3	4.09252e+10
5.12669e+2	4.47518e+14	1.53801e+3	1.89085e+13	2.56334e+3	8.79581e+11	3.58868e+3	4.16770e+10
5.12401e+2	4.48611e+14	1.53720e+3	1.90533e+13	2.56201e+3	8.90987e+11	3.58681e+3	4.24410e+10
5.12134e+2	4.49997e+14	1.53640e+3	1.91987e+13	2.56067e+3	9.02515e+11	3.58494e+3	4.32171e+10
5.11866e+2	4.51091e+14	1.53560e+3	1.93450e+13	2.55933e+3	9.14165e+11	3.58306e+3	4.40057e+10
5.11598e+2	4.52184e+14	1.53479e+3	1.94920e+13	2.55799e+3	9.25938e+11	3.58118e+3	4.48068e+10
5.11330e+2	4.53278e+14	1.53399e+3	1.96398e+13	2.55665e+3	9.37836e+11	3.57931e+3	4.56207e+10
5.11061e+2	4.54372e+14	1.53318e+3	1.97884e+13	2.55531e+3	9.49860e+11	3.57743e+3	4.64474e+10
5.10793e+2	4.55465e+14	1.53238e+3	1.99378e+13	2.55396e+3	9.62009e+11	3.57555e+3	4.72873e+10
5.10524e+2	4.56559e+14	1.53157e+3	2.00879e+13	2.55262e+3	9.74286e+11	3.57367e+3	4.81403e+10
5.10256e+2	4.57652e+14	1.53077e+3	2.02386e+13	2.55128e+3	9.86692e+11	3.57179e+3	4.90068e+10
5.09987e+2	4.58746e+14	1.52996e+3	2.03903e+13	2.54993e+3	9.99226e+11	3.56991e+3	4.98869e+10
5.09718e+2	4.59839e+14	1.52915e+3	2.05428e+13	2.54859e+3	1.01189e+12	3.56802e+3	5.07808e+10
5.09448e+2	4.60933e+14	1.52835e+3	2.06963e+13	2.54724e+3	1.02469e+12	3.56614e+3	5.16887e+10
5.09179e+2	4.62026e+14	1.52754e+3	2.08504e+13	2.54590e+3	1.03762e+12	3.56425e+3	5.26107e+10
5.08910e+2	4.63119e+14	1.52673e+3	2.10052e+13	2.54455e+3	1.05068e+12	3.56237e+3	5.35470e+10
5.08640e+2	4.64213e+14	1.52592e+3	2.11608e+13	2.54320e+3	1.06388e+12	3.56048e+3	5.44978e+10
5.08370e+2	4.65306e+14	1.52511e+3	2.13173e+13	2.54185e+3	1.07721e+12	3.55859e+3	5.54633e+10
5.08101e+2	4.66399e+14	1.52430e+3	2.14745e+13	2.54050e+3	1.09068e+12	3.55670e+3	5.64438e+10
5.07831e+2	4.67181e+14	1.52349e+3	2.16325e+13	2.53915e+3	1.10428e+12	3.55481e+3	5.74393e+10
5.07561e+2	4.68275e+14	1.52268e+3	2.17914e+13	2.53780e+3	1.11803e+12	3.55292e+3	5.84501e+10
5.07290e+2	4.69367e+14	1.52187e+3	2.19510e+13	2.53645e+3	1.13191e+12	3.55103e+3	5.94764e+10
5.07020e+2	4.70459e+14	1.52106e+3	2.21114e+13	2.53510e+3	1.14594e+12	3.54914e+3	6.05183e+10
5.06749e+2	4.71551e+14	1.52025e+3	2.22726e+13	2.53375e+3	1.16010e+12	3.54725e+3	6.15762e+10
5.06479e+2	4.72643e+14	1.51944e+3	2.24346e+13	2.53239e+3	1.17441e+12	3.54535e+3	6.26501e+10
5.06208e+2	4.73735e+14	1.51862e+3	2.25975e+13	2.53104e+3	1.18887e+12	3.54346e+3	6.37403e+10
5.05937e+2	4.74827e+14	1.51781e+3	2.27611e+13	2.52969e+3	1.20347e+12	3.54156e+3	6.48470e+10
5.05666e+2	4.75918e+14	1.51700e+3	2.29255e+13	2.52833e+3	1.21821e+12	3.53966e+3	6.59704e+10
5.05395e+2	4.77010e+14	1.51618e+3	2.30908e+13	2.52697e+3	1.23310e+12	3.53776e+3	6.71107e+10
5.05124e+2	4.78101e+14	1.51537e+3	2.32569e+13	2.52562e+3	1.24814e+12	3.53587e+3	6.82681e+10
5.04852e+2	4.79192e+14	1.51456e+3	2.34238e+13	2.52426e+3	1.26333e+12	3.53397e+3	6.94428e+10
5.04581e+2	4.80602e+14	1.51374e+3	2.35915e+13	2.52290e+3	1.27867e+12	3.53207e+3	7.06351e+10
5.04309e+2	4.81694e+14	1.51293e+3	2.37600e+13	2.52155e+3	1.29416e+12	3.53016e+3	7.18452e+10
5.04037e+2	4.82785e+14	1.51211e+3	2.39293e+13	2.52019e+3	1.30980e+12	3.52826e+3	7.30732e+10
5.03765e+2	4.83877e+14	1.51130e+3	2.40994e+13	2.51883e+3	1.32560e+12	3.52636e+3	7.43195e+10
5.03493e+2	4.84968e+14	1.51048e+3	2.42704e+13	2.51747e+3	1.34155e+12	3.52445e+3	7.55842e+10
5.03221e+2	4.86059e+14	1.50966e+3	2.44422e+13	2.51611e+3	1.35766e+12	3.52255e+3	7.68675e+10
5.02949e+2	4.87151e+14	1.50885e+3	2.46148e+13	2.51475e+3	1.37392e+12	3.52064e+3	7.81698e+10
5.02677e+2	4.88242e+14	1.50803e+3	2.47883e+13	2.51338e+3	1.39035e+12	3.51874e+3	7.94912e+10
5.02404e+2	4.89332e+14	1.50721e+3	2.49625e+13	2.51202e+3	1.40693e+12	3.51683e+3	8.08319e+10
5.02132e+2	4.90423e+14	1.50639e+3	2.51376e+13	2.51066e+3	1.42367e+12	3.51492e+3	8.21922e+10
5.01859e+2	4.91514e+14	1.50558e+3	2.53135e+13	2.50929e+3	1.44057e+12	3.51301e+3	8.35724e+10
5.01586e+2	4.92604e+14	1.50476e+3	2.54903e+13	2.50793e+3	1.45764e+12	3.51110e+3	8.49726e+10
5.01313e+2	4.93694e+14	1.50394e+3	2.56679e+13	2.50657e+3	1.47487e+12	3.50919e+3	8.63932e+10
5.01040e+2	4.94784e+14	1.50312e+3	2.58463e+13	2.50520e+3	1.49226e+12	3.50728e+3	8.78343e+10
5.00767e+2	4.95878e+14	1.50230e+3	2.60255e+13	2.50383e+3	1.50982e+12	3.50537e+3	8.92962e+10
5.00494e+2	4.96964e+14	1.50148e+3	2.62056e+13	2.50247e+3	1.52755e+12	3.50345e+3	9.07791e+10
5.00220e+2	4.97718e+14	1.50066e+3	2.63866e+13	2.50110e+3	1.54545e+12	3.50154e+3	9.22834e+10
4.99947e+2	4.98807e+14	1.49984e+3	2.65683e+13	2.49973e+3	1.56351e+12	3.49963e+3	9.38092e+10
4.99673e+2	4.99895e+14	1.49902e+3	2.67509e+13	2.49837e+3	1.58175e+12	3.49771e+3	9.53568e+10
4.99399e+2	5.00983e+14	1.49820e+3	2.69344e+13	2.49700e+3	1.60016e+12	3.49580e+3	9.69265e+10
4.99125e+2	5.02071e+14	1.49738e+3	2.71187e+13	2.49563e+3	1.61874e+12	3.49388e+3	9.85185e+10
4.98852e+2	5.03159e+14	1.49655e+3	2.73038e+13	2.49426e+3	1.63749e+12	3.49196e+3	1.00133e+11
4.98577e+2	5.04246e+14	1.49573e+3	2.74898e+13	2.49289e+3	1.65642e+12	3.49004e+3	1.01771e+11
4.98303e+2	5.05333e+14	1.49491e+3	2.76766e+13	2.49152e+3	1.67553e+12	3.48812e+3	1.03431e+11
4.98029e+2	5.06420e+14	1.49409e+3	2.78643e+13	2.49015e+3	1.69482e+12	3.48620e+3	1.05115e+11
4.97755e+2	5.07507e+14	1.49326e+3	2.80528e+13	2.48877e+3	1.71428e+12	3.48428e+3	1.06823e+11
4.97480e+2	5.08594e+14	1.49244e+3	2.82422e+13	2.48740e+3	1.73392e+12	3.48236e+3	1.08554e+11
4.97206e+2	5.10023e+14	1.49162e+3	2.84324e+13	2.48603e+3	1.75375e+12	3.48044e+3	1.10310e+11
4.96931e+2	5.11110e+14	1.49079e+3	2.86235e+13	2.48466e+3	1.77376e+12	3.47852e+3	1.12090e+11
4.96656e+2	5.12196e+14	1.48997e+3	2.88154e+13	2.48328e+3	1.79395e+12	3.47659e+3	1.13896e+11
4.96381e+2	5.13283e+14	1.48914e+3	2.90082e+13	2.48191e+3	1.81432e+12	3.47467e+3	1.15726e+11
4.96106e+2	5.14369e+14	1.48832e+3	2.92018e+13	2.48053e+3	1.83489e+12	3.47275e+3	1.17581e+11
4.95831e+2	5.15455e+14	1.48749e+3	2.93963e+13	2.47916e+3	1.85564e+12	3.47082e+3	1.19462e+11
4.95556e+2	5.16540e+14	1.48667e+3	2.95916e+13	2.47778e+3	1.87657e+12	3.46889e+3	1.21369e+11
4.95281e+2	5.17625e+14	1.48584e+3	2.97878e+13	2.47641e+3	1.89770e+12	3.46697e+3	1.23303e+11
4.95006e+2	5.18710e+14	1.48502e+3	2.99849e+13	2.47503e+3	1.91902e+12	3.46504e+3	1.25262e+11
4.94730e+2	5.19795e+14	1.48419e+3	3.01829e+13	2.47365e+3	1.94053e+12	3.46311e+3	1.27249e+11
4.94455e+2	5.20879e+14	1.48336e+3	3.03816e+13	2.47227e+3	1.96224e+12	3.46118e+3	1.29263e+11
4.94179e+2	5.21964e+14	1.48254e+3	3.05813e+13	2.47090e+3	1.98413e+12	3.45925e+3	1.31304e+11
4.93903e+2	5.23048e+14	1.48171e+3	3.07818e+13	2.46952e+3	2.00623e+12	3.45732e+3	1.33373e+11
4.93628e+2	5.24131e+14	1.48088e+3	3.09832e+13	2.46814e+3	2.02852e+12	3.45539e+3	1.35469e+11
4.93352e+2	5.25215e+14	1.48006e+3	3.11855e+13	2.46676e+3	2.05101e+12	3.45346e+3	1.37595e+11
4.93076e+2	5.26298e+14	1.47923e+3	3.13886e+13	2.46538e+3	2.07370e+12	3.45153e+3	1.39748e+11
4.92800e+2	5.27381e+14	1.47840e+3	3.15926e+13	2.46400e+3	2.09659e+12	3.44960e+3	1.41931e+11
4.92524e+2	5.28103e+14	1.47757e+3	3.17975e+13	2.46262e+3	2.11969e+12	3.44766e+3	1.44143e+11
4.92247e+2	5.29184e+14	1.47674e+3	3.20032e+13	2.46124e+3	2.14298e+12	3.44573e+3	1.46385e+11
4.91971e+2	5.30265e+14	1.47591e+3	3.22098e+13	2.45985e+3	2.16649e+12	3.44380e+3	1.48657e+11
4.91695e+2	5.31346e+14	1.47508e+3	3.24173e+13	2.45847e+3	2.19019e+12	3.44186e+3	1.50959e+11
4.91418e+2	5.32426e+14	1.47425e+3	3.26257e+13	2.45709e+3	2.21411e+12	3.43993e+3	1.53291e+11
4.91141e+2	5.33507e+14	1.47342e+3	3.28349e+13	2.45571e+3	2.23823e+12	3.43799e+3	1.55655e+11
4.90865e+2	5.34586e+14	1.47259e+3	3.30450e+13	2.45432e+3	2.26256e+12	3.43605e+3	1.58049e+11
4.90588e+2	5.35666e+14	1.47176e+3	3.32560e+13	2.45294e+3	2.28711e+12	3.43412e+3	1.60476e+11
4.90311e+2	5.36745e+14	1.47093e+3	3.34679e+13	2.45156e+3	2.31186e+12	3.43218e+3	1.62934e+11
4.90034e+2	5.37824e+14	1.47010e+3	3.36806e+13	2.45017e+3	2.33683e+12	3.43024e+3	1.65424e+11
4.89757e+2	5.39270e+14	1.46927e+3	3.38942e+13	2.44879e+3	2.36202e+12	3.42830e+3	1.67948e+11
4.89480e+2	5.40349e+14	1.46844e+3	3.41087e+13	2.44740e+3	2.38742e+12	3.42636e+3	1.70504e+11
4.89203e+2	5.41428e+14	1.46761e+3	3.43241e+13	2.44602e+3	2.41304e+12	3.42442e+3	1.73093e+11
4.88926e+2	5.42506e+14	1.46678e+3	3.45404e+13	2.44463e+3	2.43888e+12	3.42248e+3	1.75716e+11
4.88649e+2	5.43584e+14	1.46595e+3	3.47575e+13	2.44324e+3	2.46493e+12	3.42054e+3	1.78373e+11
4.88371e+2	5.44662e+14	1.46511e+3	3.49756e+13	2.44186e+3	2.49121e+12	3.41860e+3	1.81065e+11
4.88094e+2	5.45739e+14	1.46428e+3	3.51945e+13	2.44047e+3	2.51771e+12	3.41666e+3	1.83791e+11
4.87816e+2	5.46815e+14	1.46345e+3	3.54143e+13	2.43908e+3	2.54444e+12	3.41471e+3	1.86552e+11
4.87539e+2	5.47892e+14	1.46262e+3	3.56350e+13	2.43769e+3	2.57139e+12	3.41277e+3	1.89349e+11
4.87261e+2	5.48968e+14	1.46178e+3	3.58559e+13	2.43631e+3	2.59857e+12	3.41083e+3	1.92182e+11
